EXPLAIN
TAG	EISPOT
TITLE	LABEL	Test_Gamry_EIS	Test &Identifier
DATE	LABEL	3/12/2026	Date
TIME	LABEL	13:06:00	Time
NOTES	NOTES	1	&Notes...
	
PSTAT	PSTAT	REF600	Potentiostat
VDC	POTEN	0.00000E+000	T	DC &Voltage (V)
FREQINIT	QUANT	3.00000E+005	Initial Fre&q. (Hz)
FREQFINAL	QUANT	1.00000E-003	Final Fre&q. (Hz)
PTSPERDEC	QUANT	1.00000E+001	Points/&decade
VAC	QUANT	5.00000E+000	AC &Voltage (mV rms)
AREA	QUANT	1.00000E+000	&Area (cm^2)
CONDIT	TWOPARAM	F	1.50000E+001	0.00000E+000	Conditionin&g	Time(s)	E(V)
DELAY	TWOPARAM	F	1.00000E+002	0.00000E+000	Init. De&lay	Time(s)	Stab.(mV/s)
SPEED	SELECTOR	1	&Optimize for:
ZGUESS	QUANT	3.00000E+000	E&stimated Z (ohms)
OCVCURVE	TABLE	39
	Pt	T	Vf	Vm	Ach	Over
	#	s	V vs. Ref.	V	V	bits
	0	0.258333	6.49906E-002	6.49906E-002	-2.97742E-004	...........
	1	0.516667	6.49898E-002	6.49528E-002	-3.01241E-004	...........
	2	0.775	6.49855E-002	6.49224E-002	-2.99708E-004	...........
	3	1.03333	6.49734E-002	6.48826E-002	-3.01741E-004	...........
	4	1.29167	6.49516E-002	6.48475E-002	-2.97841E-004	...........
	5	1.55	6.49219E-002	6.48158E-002	-2.95775E-004	...........
	6	1.80833	6.48878E-002	6.47768E-002	-2.98442E-004	...........
	7	2.06667	6.48522E-002	6.47422E-002	-2.97542E-004	...........
	8	2.325	6.48164E-002	6.47013E-002	-3.03875E-004	...........
	9	2.58333	6.47800E-002	6.46631E-002	-2.95542E-004	...........
	10	2.84167	6.47428E-002	6.46262E-002	-3.00241E-004	...........
	11	3.1	6.47050E-002	6.45888E-002	-2.94742E-004	...........
	12	3.35833	6.46669E-002	6.45479E-002	-2.99842E-004	...........
	13	3.61667	6.46288E-002	6.45108E-002	-2.97508E-004	...........
	14	3.875	6.45905E-002	6.44708E-002	-2.99175E-004	...........
	15	4.13333	6.45519E-002	6.44332E-002	-2.97708E-004	...........
	16	4.39167	6.45131E-002	6.43914E-002	-3.01808E-004	...........
	17	4.65	6.44741E-002	6.43506E-002	-2.95342E-004	...........
	18	4.90833	6.44347E-002	6.43152E-002	-2.99075E-004	...........
	19	5.16667	6.43952E-002	6.42816E-002	-2.98375E-004	...........
	20	5.425	6.43565E-002	6.42366E-002	-3.02041E-004	...........
	21	5.68333	6.43184E-002	6.42000E-002	-3.00008E-004	...........
	22	5.94167	6.42802E-002	6.41582E-002	-2.99075E-004	...........
	23	6.2	6.42414E-002	6.41228E-002	-3.01008E-004	...........
	24	6.45833	6.42022E-002	6.40800E-002	-3.02708E-004	...........
	25	6.71667	6.41629E-002	6.40398E-002	-2.98575E-004	...........
	26	6.975	6.41234E-002	6.40006E-002	-2.97841E-004	...........
	27	7.23333	6.40836E-002	6.39616E-002	-3.00741E-004	...........
	28	7.49167	6.40436E-002	6.39179E-002	-3.02041E-004	...........
	29	7.75	6.40035E-002	6.38818E-002	-2.98342E-004	...........
	30	8.00833	6.39633E-002	6.38357E-002	-2.98342E-004	...........
	31	8.26667	6.39228E-002	6.37928E-002	-2.98042E-004	...........
	32	8.525	6.38815E-002	6.37530E-002	-3.01975E-004	...........
	33	8.78333	6.38397E-002	6.37099E-002	-2.95442E-004	...........
	34	9.04167	6.37976E-002	6.36744E-002	-2.98975E-004	...........
	35	9.3	6.37562E-002	6.36306E-002	-2.96908E-004	...........
	36	9.5583	6.37154E-002	6.35926E-002	-3.01908E-004	...........
	37	9.8167	6.36753E-002	6.35563E-002	-2.94375E-004	...........
	38	10.075	6.36356E-002	6.35135E-002	-2.97641E-004	...........
EOC	QUANT	0.0636356	Open Circuit (V)
PSTATMODEL	IQUANT	4	Pstat Model
PSTATSECTION	LABEL	REF600	Pstat Section
PSTATSERIALNO	LABEL	00000	Pstat Serial Number
CTRLMODE	IQUANT	1	Control Mode
IESTAB	IQUANT	0	I/E Stability
CASPEED	IQUANT	1	Control Amp Speed
CONVENTION	IQUANT	1	Current Convention
ICHRANGE	IQUANT	2	Ich Range
ICHRANGEMODE	TOGGLE	F	Ich Auto Range
ICHOFFSETENABLE	TOGGLE	T	Ich Offset Enable
ICHOFFSET	QUANT	0	Ich Offset (V)
ICHFILTER	IQUANT	3	Ich Filter
VCHRANGE	IQUANT	2	Vch Range
VCHRANGEMODE	TOGGLE	F	Vch Auto Range
VCHOFFSETENABLE	TOGGLE	T	Vch Offset Enable
VCHOFFSET	QUANT	0	Vch Offset (V)
VCHFILTER	IQUANT	3	Vch Filter
ACHRANGE	IQUANT	2	Ach Range
ACHOFFSETENABLE	TOGGLE	F	Ach Offset Enable
ACHOFFSET	QUANT	0	Ach Offset (V)
ACHFILTER	IQUANT	1	Ach Filter
IERANGELOWERLIMIT	IQUANT	1	I/E Range Lower Limit
IERANGEMODE	TOGGLE	F	I/E AutoRange
IERANGE	IQUANT	10	I/E Range
POSFEEDENABLE	TOGGLE	F	Positive Feedback IR Comp
POSFEEDRESISTANCE	QUANT	0	Positive Feedback Resistance (ohm)
ACHSELECT	IQUANT	0	Ach Select
CABLEID	IQUANT	12	Cable ID
DCCALDATE	LABEL	12/4/2020	DC Calibration Date
ACCALDATE	LABEL	12/4/2020	AC Calibration Date
THERMOSELECT	IQUANT	1	Thermo Select
FRAMEWORKVERSION	QUANT	6.32	Framework Version
INSTRUMENTVERSION	LABEL	3.50	Instrument Version
ZCURVE	TABLE
	Pt	Time	Freq	Zreal	Zimag	Zsig	Zmod	Zphz	Idc	Vdc	IERange
	#	s	Hz	ohm	ohm	V	ohm	°	A	V	#
	0	1	300046.9	10.20151	0.7223729	1	10.22706	4.050375	0.0002121	0.0653122	9
	1	3	238359.4	10.19639	0.5995126	1	10.214	3.364922	0.000236	0.065304	9
	2	4	189328.1	10.18962	0.4972025	1	10.20174	2.793532	0.000258	0.0653419	9
	3	6	150421.9	10.18012	0.4118478	1	10.18845	2.3167	0.0002801	0.0653542	9
	4	7	119484.4	10.15978	0.3392332	1	10.16544	1.912385	0.0002977	0.0653383	9
	5	9	94921.88	10.13683	0.2804373	1	10.14071	1.584694	0.0003227	0.0653284	9
	6	10	75421.88	10.13469	0.2154591	1	10.13698	1.2179	0.0003424	0.0653159	9
	7	11	59859.37	10.1293	0.1715348	1	10.13076	0.970183	0.0003653	0.0653171	9
	8	13	47578.12	10.1271	0.1356743	1	10.12801	0.7675542	0.000387	0.065316	9
	9	14	37828.12	10.1261	0.1069398	1	10.12666	0.6050676	0.000409	0.0653178	9
	10	16	30046.88	10.12344	0.0862831	1	10.12381	0.4883256	0.0004293	0.0653082	9
	11	17	23859.38	10.12338	0.0701163	1	10.12362	0.3968342	0.0004525	0.0653142	9
	12	19	18984.38	10.123	0.0586023	1	10.12317	0.3316827	0.0004743	0.0653105	9
	13	20	15046.87	10.12016	0.0462556	1	10.12026	0.2618764	0.0004956	0.0653109	9
	14	21	11953.13	10.11826	0.0354481	1	10.11832	0.2007281	0.0005168	0.0653067	9
	15	23	9515.62	10.11876	0.0308919	1	10.1188	0.1749198	0.0005373	0.0653038	9
	16	24	7546.875	10.11649	0.0248798	1	10.11652	0.1409093	0.0005597	0.0653043	9
	17	26	5928.309	10.11302	0.0183494	1	10.11304	0.1039594	0.0005811	0.0653023	9
	18	27	4733.456	10.11639	0.0120651	1	10.11639	0.0683326	0.0006019	0.0653053	9
	19	29	3796.875	10.11861	0.0148695	1	10.11862	0.084197	0.0006229	0.0652949	9
	20	30	2987.132	10.11268	0.0104214	1	10.11268	0.0590449	0.0006436	0.0652916	9
	21	31	2390.625	10.11894	0.0085935	1	10.11894	0.0486583	0.0006652	0.0652965	9
	22	33	1884.191	10.11731	0.0027597	1	10.11731	0.0156285	0.0006871	0.0653016	9
	23	34	1516.544	10.11708	0.0076128	1	10.11709	0.0431132	0.0007074	0.0652947	9
	24	36	1193.986	10.1171	0.0023088	1	10.1171	0.0130754	0.0007288	0.0652938	9
	25	37	946.5144	10.11671	0.0012	1	10.11671	0.0067964	0.0007493	0.0652974	9
	26	39	751.7689	10.11454	0.0046377	1	10.11454	0.0262714	0.0007685	0.0652899	9
	27	40	597.4265	10.11543	0.0013131	1	10.11543	0.0074378	0.0007902	0.0652934	9
	28	41	477.4305	10.11726	0.0027353	1	10.11726	0.0154902	0.0008112	0.0652878	9
	29	43	376.6741	10.11725	0.0020463	1	10.11725	0.0115884	0.0008306	0.0652834	9
	30	44	298.2954	10.11723	0.0012891	1	10.11723	0.0073002	0.0008509	0.0652828	9
	31	46	237.7717	10.11738	0.001397	1	10.11738	0.0079113	0.0008704	0.065276	9
	32	47	189.0121	10.11736	0.0003071	1	10.11736	0.0017394	0.0008898	0.0652761	9
	33	49	150.2404	10.11776	0.0007863	1	10.11776	0.0044527	0.0009096	0.0652752	9
	34	50	119.1737	10.11715	-0.0003269	1	10.11715	-0.0018514	0.0009288	0.0652757	9
	35	51	95.0169	10.1178	-0.0004951	1	10.1178	-0.0028038	0.000948	0.0652719	9
	36	53	75.60484	10.11641	-0.0002418	1	10.11641	-0.0013692	0.0009672	0.0652689	9
	37	54	54.50582	10.11597	-0.0002625	1	10.11597	-0.0014869	0.0009867	0.0652662	9
	38	56	45.95588	10.11946	-0.0014564	1	10.11946	-0.0082458	0.0010063	0.0652696	9
	39	57	37.20238	10.11678	-9.355088E-005	1	10.11678	-0.0005298	0.0010251	0.0652726	9
	40	59	30.04808	10.11823	-5.96478E-005	1	10.11823	-0.0003378	0.0010432	0.065271	9
	41	60	23.91582	10.11613	0.0008085	1	10.11613	0.004579	0.0010619	0.0652649	9
	42	62	18.60119	10.12085	-0.0047778	1	10.12085	-0.027048	0.0010798	0.0652678	9
	43	63	15.02404	10.11188	-0.0030422	1	10.11188	-0.0172376	0.001097	0.0652678	9
	44	64	12.01923	10.12194	0.0035346	1	10.12194	0.0200079	0.0011144	0.0652624	9
	45	66	9.450605	10.11557	0.0023424	1	10.11557	0.0132675	0.0011339	0.0652689	9
	46	67	7.512019	10.12696	-0.0026153	1	10.12696	-0.0147968	0.0011553	0.0652698	9
	47	69	5.978954	10.12899	0.0004902	1	10.12899	0.002773	0.0011785	0.0652659	9
	48	71	4.734848	10.12565	-0.0156783	1	10.12566	-0.0887152	0.001203	0.0652625	9
	49	73	3.75601	10.13494	-0.0044483	1	10.13494	-0.0251473	0.0012301	0.0652635	9
	50	75	3.004808	10.11053	-0.020337	1	10.11055	-0.1152485	0.0012593	0.0652677	9
	51	78	2.372217	10.12514	0.0166213	1	10.12516	0.0940561	0.0012895	0.065272	9
	52	81	1.878005	10.09762	-0.0001814	1	10.09762	-0.0010291	0.001327	0.0652838	9
	53	84	1.512097	10.11951	0.0265384	1	10.11954	0.1502577	0.0013666	0.0652662	9
	54	88	1.201923	10.08131	-0.007524	1	10.08132	-0.0427616	0.0014144	0.0652739	9
	55	93	0.956633	10.17742	0.0070988	1	10.17743	0.039964	0.001301	0.0636218	9
	56	98	0.7560484	10.18986	0.0001603	1	10.18986	0.0009013	0.0013662	0.0636239	9
	57	104	0.6009616	10.19724	-0.0017162	1	10.19724	-0.009643	0.0014417	0.0636189	9
	58	112	0.4783163	10.22288	-0.0081756	1	10.22288	-0.0458214	0.0015285	0.0636182	9
	59	122	0.3780242	10.23721	-0.0098938	1	10.23722	-0.055374	0.0016278	0.0636129	9
	60	134	0.3004808	10.25238	-0.0163134	1	10.25239	-0.0911682	0.0017407	0.0636112	9
	61	148	0.2391582	10.27016	-0.0278688	1	10.2702	-0.1554756	0.0018668	0.0636079	9
	62	166	0.1897773	10.28633	-0.0359439	1	10.2864	-0.20021	0.0020044	0.0636051	9
	63	188	0.1507235	10.29417	-0.0496682	1	10.29429	-0.2764436	0.0021502	0.0635961	9
	64	214	0.1195791	10.3014	-0.0664911	1	10.30162	-0.3698143	0.0022923	0.0635913	9
	65	246	0.0948887	10.30585	-0.0863967	1	10.30622	-0.4803143	0.0024271	0.0635911	9
	66	279	0.0753617	10.30284	-0.1079476	1	10.3034	-0.6002927	0.0025463	0.063586	9
	67	320	0.0598659	10.2931	-0.137242	1	10.29401	-0.7639027	0.0026596	0.0635882	9
	68	371	0.0475888	10.27615	-0.1746166	1	10.27763	-0.9735	0.0027613	0.0635848	9
	69	435	0.037772	10.25882	-0.2169933	1	10.26111	-1.211733	0.0028477	0.0635853	9
	70	516	0.0300096	10.23922	-0.2718165	1	10.24282	-1.520652	0.0029172	0.0635766	9
	71	617	0.0238307	10.22769	-0.3390388	1	10.23331	-1.898609	0.0029705	0.0635718	9
	72	744	0.0189317	10.22604	-0.423627	1	10.23481	-2.372197	0.0030098	0.0635681	9
	73	904	0.0150385	10.22759	-0.5276989	1	10.2412	-2.953592	0.0030385	0.0635707	9
	74	1104	0.0119457	10.24121	-0.6575274	1	10.26229	-3.673582	0.0030595	0.0635663	9
	75	1357	0.0094869	10.27028	-0.8145493	1	10.30254	-4.534709	0.0030745	0.0635572	9
	76	1674	0.0075362	10.32633	-1.016754	1	10.37627	-5.623348	0.0030902	0.063571	9
	77	2073	0.0059858	10.38597	-1.251377	1	10.46109	-6.870292	0.0031089	0.0635819	9
	78	2576	0.004755	10.48344	-1.544155	1	10.59655	-8.379113	0.0031178	0.0635771	9
	79	3208	0.0037769	10.63612	-1.895571	1	10.80371	-10.10517	0.0031245	0.0635718	9
	80	4003	0.003	10.85126	-2.311497	1	11.09473	-12.0252	0.0031296	0.0635672	9
	81	5004	0.0023831	11.17428	-2.7815	1	11.51526	-13.97798	0.0031332	0.0635623	9
	82	6265	0.0018929	11.60272	-3.279792	1	12.05736	-15.78425	0.0031272	0.0635366	9
	83	7851	0.0015036	12.21024	-3.798299	1	12.78738	-17.27961	0.0031281	0.0635493	9
	84	9847	0.0011943	12.98858	-4.25234	1	13.66695	-18.12796	0.0031307	0.0635788	9
	85	12360	0.0009487	13.9604	-4.591548	1	14.69609	-18.20593	0.0031399	0.0636286	9
