EXPLAIN
TAG	EISPOT
TITLE	LABEL	Test_EIS	Test &Identifier
DATE	LABEL	4/16/2026	Date
TIME	LABEL	11:56:59	Time
NOTES	NOTES	1	&Notes...
	
PSTAT	PSTAT	REF600	Potentiostat
VDC	POTEN	0.00000E+000	T	DC &Voltage (V)
FREQINIT	QUANT	3.00000E+005	Initial Fre&q. (Hz)
FREQFINAL	QUANT	1.00000E+002	Final Fre&q. (Hz)
PTSPERDEC	QUANT	1.00000E+001	Points/&decade
VAC	QUANT	5.00000E+000	AC &Voltage (mV rms)
AREA	QUANT	1.00000E+000	&Area (cm^2)
CONDIT	TWOPARAM	F	1.50000E+001	0.00000E+000	Conditionin&g	Time(s)	E(V)
DELAY	TWOPARAM	F	1.00000E+002	0.00000E+000	Init. De&lay	Time(s)	Stab.(mV/s)
SPEED	SELECTOR	1	&Optimize for:
ZGUESS	QUANT	3.00000E+000	E&stimated Z (ohms)
OCVCURVE	TABLE	39
	Pt	T	Vf	Vm	Ach	Over
	#	s	V vs. Ref.	V	V	bits
	0	0.258333	3.00652E+000	3.00652E+000	-1.13591E-005	...........
	1	0.516667	3.00652E+000	3.00646E+000	-1.19924E-005	...........
	2	0.775	3.00651E+000	3.00644E+000	-1.52257E-005	...........
	3	1.03333	3.00650E+000	3.00641E+000	-1.47591E-005	...........
	4	1.29167	3.00647E+000	3.00638E+000	-1.01591E-005	...........
	5	1.55	3.00644E+000	3.00634E+000	-1.33257E-005	...........
	6	1.80833	3.00641E+000	3.00634E+000	-1.63924E-005	...........
	7	2.06667	3.00638E+000	3.00631E+000	-1.16258E-005	...........
	8	2.325	3.00635E+000	3.00630E+000	-1.44591E-005	...........
	9	2.58333	3.00634E+000	3.00629E+000	-1.42591E-005	...........
	10	2.84167	3.00632E+000	3.00629E+000	-1.72590E-005	...........
	11	3.1	3.00631E+000	3.00624E+000	-2.27256E-005	...........
	12	3.35833	3.00629E+000	3.00627E+000	-1.33591E-005	...........
	13	3.61667	3.00628E+000	3.00624E+000	-1.39924E-005	...........
	14	3.875	3.00627E+000	3.00623E+000	-1.64257E-005	...........
	15	4.13333	3.00626E+000	3.00624E+000	-2.18923E-005	...........
	16	4.39167	3.00625E+000	3.00619E+000	-2.02256E-005	...........
	17	4.65	3.00624E+000	3.00619E+000	-2.23923E-005	...........
	18	4.90833	3.00622E+000	3.00619E+000	-1.41591E-005	...........
	19	5.16667	3.00621E+000	3.00617E+000	-1.45924E-005	...........
	20	5.425	3.00620E+000	3.00617E+000	-1.63590E-005	...........
	21	5.68333	3.00619E+000	3.00618E+000	-1.36257E-005	...........
	22	5.94167	3.00618E+000	3.00615E+000	-1.74590E-005	...........
	23	6.2	3.00617E+000	3.00614E+000	-1.90256E-005	...........
	24	6.45833	3.00616E+000	3.00613E+000	-2.17256E-005	...........
	25	6.71667	3.00615E+000	3.00613E+000	-2.12590E-005	...........
	26	6.975	3.00614E+000	3.00611E+000	-1.60590E-005	...........
	27	7.23333	3.00613E+000	3.00609E+000	-1.56257E-005	...........
	28	7.49167	3.00612E+000	3.00609E+000	-1.65590E-005	...........
	29	7.75	3.00611E+000	3.00610E+000	-2.07256E-005	...........
	30	8.00833	3.00610E+000	3.00610E+000	-1.60257E-005	...........
	31	8.26667	3.00610E+000	3.00608E+000	-1.95923E-005	...........
	32	8.525	3.00609E+000	3.00603E+000	-1.55590E-005	...........
	33	8.78333	3.00609E+000	3.00606E+000	-2.10256E-005	...........
	34	9.04167	3.00608E+000	3.00607E+000	-2.13923E-005	...........
	35	9.3	3.00607E+000	3.00606E+000	-1.77257E-005	...........
	36	9.5583	3.00606E+000	3.00604E+000	-1.74923E-005	...........
	37	9.8167	3.00606E+000	3.00605E+000	-2.19589E-005	...........
	38	10.075	3.00606E+000	3.00604E+000	-2.15923E-005	...........
EOC	QUANT	3.006056	Open Circuit (V)
PSTATMODEL	IQUANT	4	Pstat Model
PSTATSECTION	LABEL	REF600	Pstat Section
PSTATSERIALNO	LABEL	00000	Pstat Serial Number
CTRLMODE	IQUANT	1	Control Mode
IESTAB	IQUANT	0	I/E Stability
CASPEED	IQUANT	1	Control Amp Speed
CONVENTION	IQUANT	1	Current Convention
ICHRANGE	IQUANT	2	Ich Range
ICHRANGEMODE	TOGGLE	F	Ich Auto Range
ICHOFFSETENABLE	TOGGLE	T	Ich Offset Enable
ICHOFFSET	QUANT	0	Ich Offset (V)
ICHFILTER	IQUANT	3	Ich Filter
VCHRANGE	IQUANT	2	Vch Range
VCHRANGEMODE	TOGGLE	F	Vch Auto Range
VCHOFFSETENABLE	TOGGLE	T	Vch Offset Enable
VCHOFFSET	QUANT	0	Vch Offset (V)
VCHFILTER	IQUANT	3	Vch Filter
ACHRANGE	IQUANT	2	Ach Range
ACHOFFSETENABLE	TOGGLE	F	Ach Offset Enable
ACHOFFSET	QUANT	0	Ach Offset (V)
ACHFILTER	IQUANT	2	Ach Filter
IERANGELOWERLIMIT	IQUANT	1	I/E Range Lower Limit
IERANGEMODE	TOGGLE	F	I/E AutoRange
IERANGE	IQUANT	11	I/E Range
POSFEEDENABLE	TOGGLE	F	Positive Feedback IR Comp
POSFEEDRESISTANCE	QUANT	0	Positive Feedback Resistance (ohm)
ACHSELECT	IQUANT	0	Ach Select
CABLEID	IQUANT	12	Cable ID
DCCALDATE	LABEL	12/4/2020	DC Calibration Date
ACCALDATE	LABEL	12/4/2020	AC Calibration Date
THERMOSELECT	IQUANT	1	Thermo Select
FRAMEWORKVERSION	QUANT	6.32	Framework Version
INSTRUMENTVERSION	LABEL	3.50	Instrument Version
ZCURVE	TABLE
	Pt	Time	Freq	Zreal	Zimag	Zsig	Zmod	Zphz	Idc	Vdc	IERange
	#	s	Hz	ohm	ohm	V	ohm	°	A	V	#
	0	1	300046.9	16.78288	0.8681855	1	16.80532	2.961296	-3.570491E-005	3.006833	9
	1	2	238359.4	16.80867	0.7087542	1	16.8236	2.414503	-3.266838E-005	3.006813	9
	2	4	189328.1	16.66147	0.5742925	1	16.67137	1.974107	-2.989439E-005	3.00682	9
	3	5	150421.9	16.71309	0.4703971	1	16.71971	1.612188	-2.701174E-005	3.006854	9
	4	7	119484.4	16.70219	0.3763437	1	16.70643	1.290804	-2.184375E-005	3.006824	9
	5	8	94921.88	16.75988	0.3061558	1	16.76268	1.046516	-2.046371E-005	3.00682	9
	6	10	75421.88	16.81171	0.2341776	1	16.81334	0.7980462	-1.818169E-005	3.006817	9
	7	11	59859.37	16.89012	0.1785	1	16.89107	0.6054968	-1.776292E-005	3.006806	9
	8	13	47578.12	16.81735	0.140263	1	16.81794	0.4778572	-1.561383E-005	3.006803	9
	9	14	37828.12	16.81068	0.1132768	1	16.81106	0.3860749	-1.216364E-005	3.006807	9
	10	15	30046.88	16.86031	0.0887498	1	16.86054	0.3015924	-8.606303E-006	3.006819	9
	11	17	23859.38	16.80094	0.0693712	1	16.80108	0.2365732	-7.033165E-006	3.006809	9
	12	18	18984.38	16.68453	0.0597316	1	16.68464	0.2051213	-4.412678E-006	3.006809	9
	13	20	15046.87	16.64052	0.0421694	1	16.64057	0.1451952	-3.462315E-006	3.0068	9
	14	21	11953.13	16.66025	0.0318574	1	16.66028	0.1095597	9.305998E-007	3.006814	9
	15	23	9515.62	16.69841	0.0285952	1	16.69843	0.0981162	2.560989E-006	3.006806	9
	16	24	7546.875	16.67679	0.0197764	1	16.6768	0.0679451	3.525478E-006	3.006802	9
	17	25	5928.309	16.65964	0.018527	1	16.65965	0.0637178	5.230074E-006	3.0068	9
	18	27	4733.456	16.64851	0.0134169	1	16.64852	0.0461743	8.752923E-006	3.006796	9
	19	28	3796.875	16.66385	0.0126462	1	16.66386	0.0434818	1.045424E-005	3.006802	9
	20	30	2987.132	16.71684	0.0062741	1	16.71685	0.021504	1.146293E-005	3.006796	9
	21	31	2390.625	16.69946	0.0072675	1	16.69946	0.0249346	1.446756E-005	3.006802	9
	22	33	1884.191	16.66131	0.0030129	1	16.66131	0.0103609	1.704192E-005	3.006802	9
	23	34	1516.544	16.64342	0.0059433	1	16.64342	0.0204602	2.01588E-005	3.006802	9
	24	35	1193.986	16.65463	-0.00021	1	16.65463	-0.0007225	2.059981E-005	3.006805	9
	25	37	946.5144	16.68752	0.0063017	1	16.68752	0.0216366	2.255056E-005	3.006799	9
	26	38	751.7689	16.72301	0.002031	1	16.72301	0.0069587	2.484053E-005	3.006802	9
	27	40	597.4265	16.69324	0.0003443	1	16.69324	0.0011818	2.714911E-005	3.006803	9
	28	41	477.4305	16.69892	0.0049139	1	16.69892	0.01686	3.141969E-005	3.006816	9
	29	43	376.6741	16.69979	0.0041624	1	16.69979	0.0142808	3.361632E-005	3.006818	9
	30	44	298.2954	16.7235	0.0035957	1	16.7235	0.0123192	3.514306E-005	3.006808	9
	31	45	237.7717	16.73168	0.0025204	1	16.73168	0.0086307	3.711718E-005	3.006802	9
	32	47	189.0121	16.70173	0.0010954	1	16.70173	0.0037579	3.962532E-005	3.006809	9
	33	48	150.2404	16.69688	0.001681	1	16.69688	0.0057682	4.128873E-005	3.006802	9
	34	50	119.1737	16.71091	0.0010066	1	16.71091	0.0034512	4.358168E-005	3.006808	9
	35	51	95.0169	16.72148	0.00102	1	16.72148	0.0034952	4.510756E-005	3.006802	9
